ID,Latitude,Longitude
1,28.596,77.17
2,28.6,77.18
3,28.605,77.19
4,28.61,77.2
5,28.615,77.21
6,28.62,77.22
7,28.625,77.23
8,28.63,77.24
9,28.635,77.25
10,28.64,77.26
11,28.645,77.27
12,28.65,77.28
13,28.655,77.29
14,28.66,77.3
15,28.665,77.31
